Incident energy ; σ(E)
1.0E-5 ; 47486.97
1.0625E-5 ; 46069.31
1.125E-5 ; 44771.49
1.1875E-5 ; 43577.54
1.25E-5 ; 42474.3
1.375E-5 ; 40497.97
1.5E-5 ; 38774.16
1.625E-5 ; 37253.3
1.75E-5 ; 35898.45
1.875E-5 ; 34681.47
2.0E-5 ; 33580.45
2.1875E-5 ; 32109.43
2.375E-5 ; 30816.25
2.5625E-5 ; 29667.76
2.75E-5 ; 28638.83
2.9375E-5 ; 27710.08
3.125E-5 ; 26866.23
3.3125E-5 ; 26095.09
3.5E-5 ; 25386.79
3.875E-5 ; 24127.7
4.25E-5 ; 23039.2
4.625E-5 ; 22085.94
5.0E-5 ; 21242.06
5.3125E-5 ; 20608.22
5.625E-5 ; 20027.97
5.9375E-5 ; 19494.16
6.25E-5 ; 19000.92
6.875E-5 ; 18117.35
7.5E-5 ; 17346.69
8.125E-5 ; 16666.79
8.75E-5 ; 16061.12
9.375E-5 ; 15517.09
1.0E-4 ; 15024.92
1.0625E-4 ; 14576.85
1.125E-4 ; 14166.67
1.1875E-4 ; 13789.33
1.25E-4 ; 13440.67
1.375E-4 ; 12816.11
1.5E-4 ; 12271.38
1.625E-4 ; 11790.8
1.75E-4 ; 11362.72
1.875E-4 ; 10978.21
2.0E-4 ; 10630.35
2.1875E-4 ; 10165.63
2.375E-4 ; 9757.13
2.5625E-4 ; 9394.357
2.75E-4 ; 9069.376
2.9375E-4 ; 8776.054
3.125E-4 ; 8509.566
3.3125E-4 ; 8266.057
3.5E-4 ; 8042.406
3.875E-4 ; 7644.882
4.25E-4 ; 7301.262
4.625E-4 ; 7000.378
5.0E-4 ; 6734.054
5.3125E-4 ; 6534.041
5.625E-4 ; 6350.96
5.9375E-4 ; 6182.552
6.25E-4 ; 6026.957
6.875E-4 ; 5748.281
7.5E-4 ; 5505.271
8.125E-4 ; 5290.926
8.75E-4 ; 5100.027
9.375E-4 ; 4928.594
0.001 ; 4773.534
0.0010625 ; 4632.4
0.001125 ; 4503.228
0.0011875 ; 4384.421
0.00125 ; 4274.665
0.001375 ; 4078.113
0.0015 ; 3906.746
0.001625 ; 3755.614
0.00175 ; 3621.032
0.001875 ; 3500.19
0.002 ; 3390.903
0.0021875 ; 3244.96
0.002375 ; 3116.738
0.0025625 ; 3002.93
0.00275 ; 2901.035
0.0029375 ; 2809.114
0.003125 ; 2725.645
0.0033125 ; 2649.407
0.0035 ; 2579.412
0.003875 ; 2455.056
0.00425 ; 2347.616
0.004625 ; 2253.587
0.005 ; 2170.417
0.0053125 ; 2108.005
0.005625 ; 2050.921
0.0059375 ; 1998.451
0.00625 ; 1950.005
0.006875 ; 1863.292
0.0075 ; 1787.719
0.008125 ; 1721.09
0.00875 ; 1661.79
0.009375 ; 1608.588
0.01 ; 1560.53
0.010625 ; 1516.854
0.01125 ; 1476.948
0.011875 ; 1440.303
0.0125 ; 1406.497
0.01375 ; 1346.04
0.015 ; 1293.404
0.01625 ; 1247.079
0.0175 ; 1205.954
0.01875 ; 1169.168
0.02 ; 1136.04
0.021325 ; 1104.316
0.02265 ; 1075.583
0.023975 ; 1049.435
0.0253 ; 1025.548
0.02684375 ; 1000.212
0.0283875 ; 977.2013
0.03108907 ; 941.553
0.03379063 ; 910.7337
0.03649219 ; 883.935
0.03919375 ; 860.5167
0.04189532 ; 839.9554
0.04459688 ; 821.837
0.04729844 ; 805.8324
0.05 ; 791.6762
0.053125 ; 777.3253
0.05625 ; 764.8963
0.059375 ; 754.2004
0.0625 ; 745.075
0.06875 ; 730.7332
0.075 ; 720.8849
0.08125 ; 715.0708
0.0875 ; 712.8961
0.09375 ; 714.0981
0.1 ; 718.5243
0.10625 ; 726.1124
0.1125 ; 736.8766
0.11875 ; 750.9012
0.125 ; 768.3381
0.13125 ; 789.4074
0.1375 ; 814.402
0.14375 ; 843.6939
0.15 ; 877.7455
0.15625 ; 917.1154
0.1625 ; 962.4382
0.16875 ; 1014.477
0.171875 ; 1043.35
0.175 ; 1074.344
0.178125 ; 1107.622
0.18125 ; 1143.352
0.184375 ; 1181.713
0.1875 ; 1222.906
0.190625 ; 1267.157
0.19375 ; 1314.713
0.196875 ; 1365.847
0.2 ; 1420.86
0.2029732 ; 1477.098
0.2059463 ; 1537.445
0.2089194 ; 1602.234
0.2118925 ; 1671.818
0.2148657 ; 1746.579
0.2178388 ; 1826.916
0.2208119 ; 1913.257
0.223785 ; 2006.05
0.2278843 ; 2145.422
0.2319836 ; 2299.152
0.2360829 ; 2468.413
0.2401822 ; 2654.238
0.2442815 ; 2857.375
0.2483808 ; 3078.09
0.2504305 ; 3194.932
0.2524801 ; 3315.91
0.2545298 ; 3440.809
0.2565794 ; 3569.299
0.2586441 ; 3701.95
0.2607087 ; 3837.281
0.2627734 ; 3974.639
0.264838 ; 4113.209
0.2669027 ; 4252.065
0.2689673 ; 4390.113
0.271032 ; 4526.152
0.2730966 ; 4658.825
0.2751613 ; 4786.693
0.2772259 ; 4908.21
0.2813552 ; 5125.843
0.2834199 ; 5218.783
0.2854845 ; 5299.114
0.2875492 ; 5365.478
0.2896138 ; 5416.678
0.2926169 ; 5462.159
0.29562 ; 5471.591
0.2976847 ; 5456.768
0.2997493 ; 5424.739
0.301814 ; 5375.971
0.3038786 ; 5311.227
0.3059433 ; 5231.515
0.3080079 ; 5138.074
0.3100726 ; 5032.296
0.3121372 ; 4915.718
0.3162665 ; 4656.567
0.3203958 ; 4373.478
0.3245251 ; 4078.476
0.3286544 ; 3781.867
0.3316575 ; 3569.881
0.3352964 ; 3321.083
0.3389353 ; 3083.985
0.3425742 ; 2860.571
0.3462131 ; 2651.919
0.349852 ; 2458.398
0.3534909 ; 2279.857
0.3571298 ; 2115.776
0.3607687 ; 1965.397
0.3641274 ; 1837.99
0.367486 ; 1720.75
0.3708447 ; 1612.913
0.3742033 ; 1513.739
0.377562 ; 1422.508
0.3809206 ; 1338.55
0.3842793 ; 1261.229
0.3876379 ; 1189.966
0.3909966 ; 1124.222
0.3943552 ; 1063.51
0.3977139 ; 1007.381
0.4010725 ; 955.4334
0.4044312 ; 907.2989
0.4077898 ; 862.6483
0.4111485 ; 821.1772
0.4145071 ; 782.6125
0.4177131 ; 748.2791
0.4209191 ; 716.1643
0.4241251 ; 686.0873
0.4273311 ; 657.8856
0.4305371 ; 631.4131
0.4337431 ; 606.5384
0.4369491 ; 583.1427
0.440155 ; 561.1178
0.443361 ; 540.3628
0.446567 ; 520.7868
0.449773 ; 502.3055
0.452979 ; 484.8416
0.456185 ; 468.3241
0.459391 ; 452.6879
0.462597 ; 437.8732
0.4658029 ; 423.8257
0.4700776 ; 406.2019
0.4743522 ; 389.7471
0.4786269 ; 374.3666
0.4829015 ; 359.978
0.4871762 ; 346.5046
0.4914508 ; 333.8744
0.5 ; 310.8575
0.515625 ; 275.0533
0.53125 ; 245.6535
0.546875 ; 221.3384
0.5625 ; 201.0144
0.578125 ; 183.8493
0.59375 ; 169.2155
0.609375 ; 156.6331
0.625 ; 145.7301
0.640625 ; 136.2154
0.65625 ; 127.8583
0.671875 ; 120.4834
0.6875 ; 113.9841
0.71875 ; 102.9184
0.75 ; 93.86093
0.78125 ; 86.39136
0.8125 ; 80.14461
0.84375 ; 74.85553
0.875 ; 70.32788
0.90625 ; 66.41393
0.9375 ; 63.0006
0.96875 ; 60.00015
1.0 ; 57.3436
1.03125 ; 54.9764
1.0625 ; 52.87051
1.125 ; 49.23638
1.1875 ; 46.20945
1.25 ; 43.66146
1.3125 ; 41.48562
1.375 ; 39.60434
1.4375 ; 37.95996
1.5 ; 36.50887
1.5625 ; 35.21751
1.625 ; 34.06548
1.75 ; 32.07603
1.875 ; 30.41307
2.0 ; 29.00522
2.1875 ; 27.24577
2.375 ; 25.79914
2.5625 ; 24.58733
2.75 ; 23.55568
2.9375 ; 22.66628
3.125 ; 21.89192
3.3125 ; 21.21263
3.5 ; 20.61515
3.875 ; 19.61547
4.25 ; 18.82859
4.625 ; 18.22211
5.0 ; 17.78122
5.260035 ; 17.57915
5.520069 ; 17.47127
5.682591 ; 17.46458
5.845112 ; 17.51519
6.007634 ; 17.63818
6.170155 ; 17.85609
6.251416 ; 18.00216
6.332677 ; 18.19337
6.413938 ; 18.43147
6.495198 ; 18.72648
6.576459 ; 19.09244
6.65772 ; 19.54836
6.738981 ; 20.12055
6.820241 ; 20.8461
6.882541 ; 21.53423
6.944841 ; 22.36752
7.007141 ; 23.41161
7.069441 ; 24.72793
7.131741 ; 26.41437
7.162891 ; 27.44103
7.194041 ; 28.62287
7.225191 ; 29.99199
7.256341 ; 31.58761
7.287491 ; 33.4615
7.318641 ; 35.6897
7.348437 ; 38.2496
7.378232 ; 41.3493
7.408028 ; 45.1503
7.437823 ; 49.88287
7.452721 ; 52.69847
7.467619 ; 55.88475
7.482517 ; 59.51052
7.497414 ; 63.66121
7.512312 ; 68.44579
7.52721 ; 74.00355
7.542108 ; 80.51738
7.557005 ; 88.22988
7.571903 ; 97.46989
7.586801 ; 108.6858
7.601699 ; 122.5039
7.616597 ; 139.8183
7.624046 ; 150.1726
7.631495 ; 161.9322
7.638944 ; 175.3591
7.646393 ; 190.7726
7.653842 ; 208.5601
7.661291 ; 229.1884
7.66874 ; 253.2135
7.676188 ; 281.2824
7.685669 ; 324.052
7.695149 ; 376.3036
7.70463 ; 439.8625
7.71411 ; 516.4199
7.720882 ; 579.8068
7.727654 ; 650.7192
7.734426 ; 729.0682
7.741197 ; 814.3524
7.747969 ; 905.6303
7.75474 ; 1001.375
7.761512 ; 1099.562
7.768283 ; 1197.588
7.778847 ; 1342.999
7.789411 ; 1468.053
7.799975 ; 1560.348
7.810538 ; 1609.843
7.8158 ; 1616.546
7.826325 ; 1593.081
7.83685 ; 1523.16
7.849435 ; 1389.466
7.862019 ; 1219.682
7.874604 ; 1035.21
7.887188 ; 854.9725
7.897125 ; 724.6357
7.907061 ; 609.1601
7.916998 ; 510.0266
7.926934 ; 427.0261
7.936871 ; 358.7791
7.946807 ; 303.3485
7.956744 ; 258.6038
7.96668 ; 222.539
7.974525 ; 199.0225
7.98237 ; 179.0706
7.990215 ; 162.0631
7.998059 ; 147.4879
8.005904 ; 134.9208
8.013748 ; 124.0229
8.021593 ; 114.514
8.029437 ; 106.1715
8.037282 ; 98.81041
8.045126 ; 92.28349
8.060815 ; 81.26137
8.076504 ; 72.36145
8.092193 ; 65.06835
8.106837 ; 59.38653
8.12148 ; 54.5672
8.136123 ; 50.44481
8.150766 ; 46.89222
8.16541 ; 43.80996
8.180053 ; 41.11996
8.209339 ; 36.67661
8.238626 ; 33.18548
8.267912 ; 30.39034
8.297199 ; 28.11622
8.326485 ; 26.2438
8.359956 ; 24.48657
8.393426 ; 23.04747
8.426897 ; 21.85647
8.460367 ; 20.8623
8.493838 ; 20.02746
8.527308 ; 19.32275
8.594248 ; 18.20308
8.661189 ; 17.36542
8.728129 ; 16.73753
8.79507 ; 16.26617
8.86201 ; 15.91481
8.945686 ; 15.60737
9.029362 ; 15.41963
9.113038 ; 15.33954
9.196713 ; 15.33518
9.297124 ; 15.44493
9.397535 ; 15.68393
9.497946 ; 16.0669
9.598357 ; 16.61366
9.698768 ; 17.39002
9.799179 ; 18.4857
9.849385 ; 19.18765
9.89959 ; 20.02056
9.949795 ; 21.01182
10.0 ; 22.19591
10.05194 ; 23.67958
10.10388 ; 25.50157
10.15582 ; 27.75744
10.20775 ; 30.57496
10.25969 ; 34.13444
10.28566 ; 36.27738
10.31163 ; 38.7254
10.3376 ; 41.53601
10.36357 ; 44.77796
10.38954 ; 48.53702
10.4155 ; 52.92042
10.44634 ; 59.13613
10.47718 ; 66.74396
10.50802 ; 76.16936
10.53886 ; 88.00381
10.55428 ; 95.07356
10.5697 ; 103.086
10.58512 ; 112.2079
10.60054 ; 122.6445
10.61596 ; 134.65
10.63138 ; 148.5397
10.6468 ; 164.7051
10.66221 ; 183.6184
10.67844 ; 207.1828
10.69467 ; 235.3465
10.7109 ; 269.1901
10.72713 ; 310.0278
10.74088 ; 351.2413
10.75462 ; 399.5883
10.76836 ; 456.1672
10.7821 ; 521.9632
10.79585 ; 597.7556
10.80959 ; 683.6445
10.82333 ; 779.0889
10.83707 ; 882.3981
10.84844 ; 971.7302
10.85981 ; 1061.98
10.88254 ; 1232.613
10.89391 ; 1305.933
10.90527 ; 1366.397
10.91664 ; 1411.008
10.928 ; 1437.362
10.94013 ; 1443.966
10.95832 ; 1412.434
10.9765 ; 1336.951
10.9941 ; 1232.766
11.01169 ; 1110.855
11.02928 ; 983.3158
11.04687 ; 859.8232
11.06446 ; 746.7383
11.08205 ; 647.254
11.09964 ; 562.1211
11.11723 ; 490.5379
11.12959 ; 447.5048
11.14194 ; 409.7773
11.15429 ; 376.6868
11.16664 ; 347.6397
11.17899 ; 322.0979
11.19134 ; 299.5855
11.21604 ; 262.0477
11.24075 ; 232.3556
11.26545 ; 208.6056
11.29015 ; 189.4057
11.31485 ; 173.767
11.34779 ; 157.2369
11.38073 ; 144.5732
11.41367 ; 134.9673
11.4466 ; 127.8963
11.47954 ; 123.0487
11.51248 ; 120.3068
11.54542 ; 119.7428
11.56189 ; 120.3646
11.57835 ; 121.6751
11.59976 ; 124.5847
11.62117 ; 129.1835
11.63188 ; 132.2803
11.64258 ; 136.0288
11.65329 ; 140.5645
11.66399 ; 146.0479
11.6747 ; 152.7151
11.6854 ; 160.8571
11.69611 ; 170.9011
11.70681 ; 183.3853
11.71752 ; 199.0821
11.72822 ; 218.948
11.73358 ; 230.8559
11.73893 ; 244.2849
11.74428 ; 259.4591
11.74963 ; 276.5979
11.75705 ; 304.0565
11.76446 ; 336.3413
11.77187 ; 374.1274
11.77928 ; 418.0071
11.78669 ; 468.4633
11.7941 ; 525.7975
11.80151 ; 590.0502
11.80892 ; 660.9204
11.81428 ; 715.9225
11.81963 ; 773.4921
11.83033 ; 894.2907
11.84104 ; 1017.545
11.85174 ; 1135.231
11.86052 ; 1221.501
11.86929 ; 1293.081
11.87806 ; 1345.586
11.88683 ; 1375.455
11.89428 ; 1381.338
11.898 ; 1377.367
11.90918 ; 1338.18
11.91729 ; 1285.853
11.9254 ; 1216.267
11.93351 ; 1132.843
11.94162 ; 1039.504
11.95313 ; 897.9836
11.96464 ; 755.6797
11.97615 ; 621.5901
11.98191 ; 559.6327
11.98766 ; 501.9307
11.99399 ; 443.5764
12.00032 ; 390.8278
12.00665 ; 343.6826
12.01298 ; 301.9741
12.01931 ; 265.4102
12.02564 ; 233.6112
12.03197 ; 206.1442
12.03829 ; 182.5862
12.04405 ; 164.094
12.0498 ; 148.1232
12.05556 ; 134.3048
12.06131 ; 122.3987
12.06707 ; 112.1023
12.07282 ; 103.2192
12.07858 ; 95.51424
12.08433 ; 88.83709
12.09009 ; 83.01186
12.09584 ; 77.92881
12.1016 ; 73.45984
12.10735 ; 69.52758
12.11311 ; 66.0401
12.11886 ; 62.94409
12.13037 ; 57.69319
12.13786 ; 54.82584
12.14534 ; 52.3101
12.1603 ; 48.10971
12.17526 ; 44.75909
12.19022 ; 42.03864
12.20518 ; 39.79704
12.22014 ; 37.92691
12.2351 ; 36.34995
12.25006 ; 35.00776
12.27998 ; 32.85974
12.3099 ; 31.232
12.33982 ; 29.96701
12.36974 ; 28.96303
12.40657 ; 27.98859
12.4434 ; 27.22722
12.48023 ; 26.62438
12.51706 ; 26.14286
12.55389 ; 25.75706
12.59072 ; 25.44829
12.66437 ; 25.00524
12.73803 ; 24.73925
12.81168 ; 24.61693
12.88534 ; 24.61826
12.95899 ; 24.73344
13.03265 ; 24.96056
13.1063 ; 25.304
13.19377 ; 25.87812
13.28124 ; 26.66209
13.36871 ; 27.70412
13.45617 ; 29.07814
13.54364 ; 30.8993
13.63111 ; 33.345
13.67485 ; 34.88124
13.71858 ; 36.69689
13.76231 ; 38.87879
13.80604 ; 41.53781
13.84287 ; 44.25703
13.8797 ; 47.55114
13.91653 ; 51.60676
13.95336 ; 56.70287
13.99019 ; 63.28502
14.00861 ; 67.35179
14.02702 ; 72.10646
14.04544 ; 77.7429
14.06385 ; 84.51714
14.08226 ; 92.80573
14.10067 ; 103.1525
14.11679 ; 114.5205
14.1329 ; 128.8117
14.14096 ; 137.3625
14.14901 ; 147.0282
14.15707 ; 157.9961
14.16512 ; 170.4132
14.17318 ; 184.4896
14.18124 ; 200.3857
14.1893 ; 218.26
14.19735 ; 238.2121
14.20541 ; 260.3662
14.21346 ; 284.6696
14.22957 ; 339.3592
14.23878 ; 373.5659
14.2473 ; 406.3725
14.25581 ; 439.4775
14.27284 ; 502.9171
14.28987 ; 555.293
14.29839 ; 574.5726
14.3069 ; 587.9432
14.31519 ; 594.6438
14.32348 ; 594.7093
14.329 ; 591.0123
14.33729 ; 579.9576
14.34558 ; 562.6785
14.35879 ; 524.0514
14.37199 ; 475.3153
14.38519 ; 421.0942
14.39839 ; 366.1186
14.40993 ; 320.7516
14.42147 ; 280.2538
14.43301 ; 246.2357
14.43878 ; 232.0017
14.44455 ; 219.7421
14.45085 ; 208.6879
14.45714 ; 200.1431
14.46239 ; 194.9579
14.46764 ; 191.5785
14.47289 ; 190.0414
14.47813 ; 190.389
14.48312 ; 192.5185
14.4881 ; 196.454
14.49309 ; 202.2854
14.49807 ; 210.078
14.50306 ; 219.9681
14.50804 ; 232.037
14.51302 ; 246.4385
14.518 ; 263.3235
14.52299 ; 282.897
14.52797 ; 305.2534
14.53296 ; 330.661
14.53794 ; 359.1969
14.54293 ; 391.1496
14.54791 ; 426.5521
14.55289 ; 465.6062
14.55787 ; 508.4244
14.56365 ; 562.9378
14.56942 ; 622.5509
14.57519 ; 687.2874
14.58096 ; 756.9591
14.58673 ; 831.2397
14.5925 ; 909.6523
14.60404 ; 1076.167
14.61405 ; 1226.446
14.62406 ; 1375.919
14.63407 ; 1517.649
14.64407 ; 1644.154
14.65256 ; 1734.399
14.66104 ; 1804.718
14.66952 ; 1852.182
14.678 ; 1874.773
14.68705 ; 1870.537
14.70096 ; 1808.771
14.71487 ; 1688.566
14.72878 ; 1525.247
14.74269 ; 1337.287
14.75931 ; 1105.575
14.77592 ; 889.4576
14.78423 ; 792.2932
14.79253 ; 704.0329
14.80084 ; 624.8858
14.80914 ; 555.0145
14.81627 ; 502.0422
14.82339 ; 455.2489
14.83051 ; 414.0885
14.83763 ; 378.0454
14.84475 ; 346.5869
14.85187 ; 319.1878
14.85899 ; 295.3482
14.86611 ; 274.6046
14.87323 ; 256.5375
14.88035 ; 240.7737
14.88747 ; 226.986
14.89459 ; 214.8913
14.90883 ; 194.8467
14.92307 ; 179.1065
14.93806 ; 165.9923
14.95304 ; 155.5525
14.96803 ; 147.1479
14.98301 ; 140.347
14.998 ; 134.8205
15.01298 ; 130.3396
15.02796 ; 126.722
15.04294 ; 123.831
15.06944 ; 120.1798
15.09594 ; 118.0387
15.12244 ; 117.0994
15.14893 ; 117.1325
15.17543 ; 117.9532
15.20192 ; 119.402
15.25491 ; 123.6123
15.30791 ; 128.6406
15.3609 ; 133.2885
15.41389 ; 136.3044
15.46688 ; 136.6083
15.51675 ; 133.8633
15.55658 ; 129.5539
15.59641 ; 123.6223
15.67607 ; 108.6212
15.75573 ; 92.47532
15.83539 ; 77.66694
15.87522 ; 71.15147
15.91505 ; 65.28985
15.95488 ; 60.06903
15.99471 ; 55.45015
16.03454 ; 51.38087
16.07437 ; 47.80416
16.1142 ; 44.66369
16.15403 ; 41.90688
16.19629 ; 39.34849
16.23854 ; 37.11922
16.28079 ; 35.17547
16.32304 ; 33.48065
16.40755 ; 30.71924
16.49205 ; 28.64605
16.57656 ; 27.13422
16.66107 ; 26.10855
16.74558 ; 25.53899
16.78783 ; 25.42878
16.83008 ; 25.44375
16.8829 ; 25.65767
16.93572 ; 26.12352
16.98854 ; 26.89665
17.04135 ; 28.06252
17.06776 ; 28.83458
17.09417 ; 29.76496
17.12058 ; 30.88597
17.14698 ; 32.23791
17.17339 ; 33.87469
17.1998 ; 35.8659
17.22621 ; 38.30636
17.25261 ; 41.32617
17.27726 ; 44.83364
17.30191 ; 49.23074
17.32656 ; 54.84774
17.33888 ; 58.26221
17.3512 ; 62.19409
17.36353 ; 66.76252
17.37585 ; 72.11063
17.38818 ; 78.44613
17.4005 ; 86.02374
17.41283 ; 95.21081
17.42515 ; 106.4665
17.43747 ; 120.4254
17.44979 ; 137.9066
17.46036 ; 156.4965
17.47092 ; 179.2166
17.48149 ; 207.0313
17.49205 ; 240.9062
17.50262 ; 281.9709
17.51318 ; 331.1732
17.51846 ; 359.1204
17.52374 ; 389.4162
17.52902 ; 422.1199
17.5343 ; 457.2611
17.54091 ; 504.6774
17.54751 ; 555.7194
17.55411 ; 610.2396
17.56071 ; 667.8947
17.56732 ; 728.299
17.57392 ; 790.6508
17.58712 ; 918.3159
17.60535 ; 1088.727
17.62358 ; 1230.812
17.63194 ; 1280.044
17.64029 ; 1316.542
17.64865 ; 1338.989
17.657 ; 1346.456
17.67133 ; 1323.917
17.68518 ; 1262.2
17.69903 ; 1167.733
17.71288 ; 1049.812
17.72672 ; 919.068
17.74585 ; 735.6694
17.75542 ; 648.8035
17.76498 ; 567.8945
17.77455 ; 493.9893
17.78411 ; 427.8992
17.79368 ; 369.6623
17.80324 ; 319.194
17.81112 ; 283.0501
17.819 ; 251.448
17.82688 ; 223.9728
17.83476 ; 200.1887
17.84264 ; 179.6616
17.85052 ; 161.9756
17.8584 ; 146.7439
17.86627 ; 133.6314
17.87415 ; 122.2935
17.88203 ; 112.4758
17.88991 ; 103.9439
17.89778 ; 96.50679
17.90566 ; 89.97714
17.91354 ; 84.22371
17.92929 ; 74.59924
17.94392 ; 67.39733
17.95855 ; 61.45178
17.97318 ; 56.47389
17.98781 ; 52.25484
18.00244 ; 48.64093
18.01707 ; 45.51691
18.0317 ; 42.79472
18.04633 ; 40.40586
18.07559 ; 36.42244
18.10485 ; 33.24814
18.13411 ; 30.67043
18.16337 ; 28.54314
18.19263 ; 26.76357
18.22189 ; 25.25789
18.25115 ; 23.97144
18.28041 ; 22.86272
18.30967 ; 21.89956
18.33893 ; 21.05678
18.39745 ; 19.65695
18.45597 ; 18.54772
18.51449 ; 17.65096
18.57301 ; 16.91015
18.63153 ; 16.28806
18.69906 ; 15.68614
18.76658 ; 15.18173
18.83411 ; 14.75341
18.90163 ; 14.38564
18.96916 ; 14.06656
19.03668 ; 13.78757
19.17172 ; 13.32673
19.30677 ; 12.9563
19.44181 ; 12.65388
19.57686 ; 12.40528
19.7119 ; 12.19992
19.85595 ; 12.02087
20.0 ; 11.8785
20.14695 ; 11.76953
20.29389 ; 11.69883
20.44084 ; 11.6717
20.58778 ; 11.69877
20.73473 ; 11.7982
20.8082 ; 11.88202
20.88167 ; 11.99598
20.95514 ; 12.15055
21.02861 ; 12.35523
21.10208 ; 12.62325
21.17555 ; 12.97382
21.23606 ; 13.34328
21.29657 ; 13.8069
21.35708 ; 14.39161
21.41758 ; 15.13789
21.47809 ; 16.10659
21.50834 ; 16.69963
21.53859 ; 17.38298
21.56885 ; 18.17438
21.5991 ; 19.09524
21.62935 ; 20.17363
21.6596 ; 21.44515
21.69418 ; 23.19486
21.72875 ; 25.3489
21.76333 ; 28.0372
21.7979 ; 31.44417
21.81519 ; 33.5
21.83248 ; 35.85019
21.84977 ; 38.55378
21.86705 ; 41.68357
21.88434 ; 45.33895
21.90163 ; 49.64281
21.91892 ; 54.75987
21.9362 ; 60.90759
21.95565 ; 69.44396
21.96538 ; 74.53167
21.9751 ; 80.28544
21.98483 ; 86.83728
21.99455 ; 94.31825
22.00428 ; 102.9173
22.014 ; 112.8234
22.02373 ; 124.3016
22.03345 ; 137.6138
22.04318 ; 153.1168
22.0529 ; 171.151
22.06263 ; 192.166
22.07235 ; 216.5623
22.08207 ; 244.8206
22.09179 ; 277.3989
22.10044 ; 310.3705
22.10908 ; 347.3147
22.11773 ; 388.5094
22.12637 ; 433.9613
22.13502 ; 483.7598
22.14366 ; 537.6308
22.15231 ; 595.3721
22.16095 ; 656.338
22.16959 ; 719.8855
22.17823 ; 785.109
22.18937 ; 869.8916
22.20051 ; 952.8994
22.22278 ; 1101.233
22.23359 ; 1158.824
22.24439 ; 1203.467
22.2552 ; 1233.242
22.266 ; 1246.752
22.27598 ; 1244.303
22.28595 ; 1227.699
22.30354 ; 1166.506
22.32112 ; 1071.772
22.3387 ; 954.4926
22.35628 ; 826.6973
22.381 ; 649.7932
22.39336 ; 568.7427
22.40572 ; 494.9549
22.41808 ; 429.2464
22.43044 ; 371.816
22.4428 ; 322.389
22.45515 ; 280.397
22.46519 ; 251.1667
22.47523 ; 225.8391
22.48527 ; 203.9471
22.49531 ; 185.0423
22.50535 ; 168.7095
22.51539 ; 154.5745
22.52543 ; 142.3078
22.53547 ; 131.6241
22.54551 ; 122.2797
22.55555 ; 114.0686
22.57563 ; 100.3843
22.59571 ; 89.50664
22.61579 ; 80.69831
22.63433 ; 73.95647
22.65287 ; 68.25226
22.67141 ; 63.3739
22.68994 ; 59.1649
22.70848 ; 55.49982
22.72702 ; 52.28734
22.74556 ; 49.45369
22.76409 ; 46.94125
22.80117 ; 42.69184
22.83824 ; 39.25452
22.87531 ; 36.42943
22.91238 ; 34.075
